# Microphone Coordinates: (-0.422618, -0.906308, 0) m
# Propagation distance from average source location: 2570.44 m
# Column 1: time (s)
# Column 2: Total Acoustic Pressure (Pa)
0.023913564904497 -1.1423488790013
0.023930191753031 -1.1424139543317
0.023946818601565 -1.1410736315122
0.0239634454501 -1.1399085020464
0.023980072298634 -1.1407557666319
0.023996699147168 -1.1428697620956
0.024013325995703 -1.1457700400753
0.024029952844237 -1.1480435177385
0.024046579692771 -1.1496539045141
0.024063206541306 -1.1508141459505
0.02407983338984 -1.1532670366252
0.024096460238374 -1.1570275136295
0.024113087086909 -1.1599488050085
0.024129713935443 -1.1635104300911
0.024146340783977 -1.1675126404692
0.024162967632512 -1.1712425622762
0.024179594481046 -1.1732596876988
0.02419622132958 -1.1750460982098
0.024212848178115 -1.1766079913351
0.024229475026649 -1.1765893042806
0.024246101875183 -1.1765558498767
0.024262728723718 -1.1761044100946
0.024279355572252 -1.1745442885044
0.024295982420786 -1.1731141500131
0.024312609269321 -1.1726488723006
0.024329236117855 -1.1724053139125
0.024345862966389 -1.1726191736286
0.024362489814924 -1.1722105641081
0.024379116663458 -1.1714425012997
0.024395743511992 -1.1712068970038
0.024412370360527 -1.171936760086
0.024428997209061 -1.1716230320447
0.024445624057595 -1.1715022342733
0.02446225090613 -1.1721124194265
0.024478877754664 -1.1722342307112
0.024495504603198 -1.1739430656041
0.024512131451733 -1.175788275577
0.024528758300267 -1.1770601424474
0.024545385148801 -1.1770017821749
0.024562011997336 -1.1764057684031
0.02457863884587 -1.1785603299191
0.024595265694404 -1.1806875808913
0.024611892542939 -1.1798729606469
0.024628519391473 -1.1801396650573
0.024645146240007 -1.1816605104872
0.024661773088542 -1.1829277170062
0.024678399937076 -1.1843562769387
0.02469502678561 -1.1852180066455
0.024711653634145 -1.1844081993675
0.024728280482679 -1.183318661823
0.024744907331213 -1.1841561404429
0.024761534179748 -1.1845211175494
0.024778161028282 -1.1854126671578
0.024794787876816 -1.1865972023912
0.024811414725351 -1.185817639419
0.024828041573885 -1.1857441186237
0.024844668422419 -1.187036613342
0.024861295270954 -1.1870505172725
0.024877922119488 -1.1855607363951
0.024894548968022 -1.1856256644938
0.024911175816556 -1.1868848765658
0.024927802665091 -1.1878246447058
0.024944429513625 -1.1886795110193
0.024961056362159 -1.1885524342749
0.024977683210694 -1.1877718946154
0.024994310059228 -1.1881941938783
0.025010936907762 -1.1879996733862
0.025027563756297 -1.1861499379882
0.025044190604831 -1.1845347576203
0.025060817453365 -1.1824546121451
0.0250774443019 -1.1807153412217
0.025094071150434 -1.1807967952126
0.025110697998968 -1.1804565126281
0.025127324847503 -1.179693303264
0.025143951696037 -1.1807239844625
0.025160578544571 -1.1830833325846
0.025177205393106 -1.1854473058805
0.02519383224164 -1.1873507460131
0.025210459090174 -1.187646519075
0.025227085938709 -1.1876781503466
0.025243712787243 -1.188923167601
0.025260339635777 -1.1897054625949
0.025276966484312 -1.1890927325999
0.025293593332846 -1.1877599058935
0.02531022018138 -1.1868054939898
0.025326847029915 -1.1868218690273
0.025343473878449 -1.1861070334483
0.025360100726983 -1.1840558489368
0.025376727575518 -1.1829734085118
0.025393354424052 -1.1817190752861
0.025409981272586 -1.17815957656
0.025426608121121 -1.1744534780966
0.025443234969655 -1.1727198403134
0.025459861818189 -1.1734002247834
0.025476488666724 -1.1753683885399
0.025493115515258 -1.1760423545377
0.025509742363792 -1.1763337688034
0.025526369212327 -1.1773583317867
0.025542996060861 -1.1780843330283
0.025559622909395 -1.1786016586751
0.02557624975793 -1.1788061775791
0.025592876606464 -1.1783637374204
0.025609503454998 -1.1780087754024
0.025626130303533 -1.1788105406104
0.025642757152067 -1.1804538422422
0.025659384000601 -1.182901189129
0.025676010849136 -1.185713112062
0.02569263769767 -1.1874724515928
0.025709264546204 -1.1896167353645
0.025725891394739 -1.1904980830008
0.025742518243273 -1.1883250643528
0.025759145091807 -1.1870124804607
0.025775771940342 -1.18781631774
0.025792398788876 -1.1879153048637
0.02580902563741 -1.1865912391567
0.025825652485945 -1.1858510810482
0.025842279334479 -1.1858535190164
0.025858906183013 -1.1868410173408
0.025875533031547 -1.1873268188733
0.025892159880082 -1.1872739849735
0.025908786728616 -1.1889773559042
0.02592541357715 -1.1895416438037
0.025942040425685 -1.1901557399919
0.025958667274219 -1.1917819425707
0.025975294122753 -1.1916392019614
0.025991920971288 -1.1908080995828
0.026008547819822 -1.1897882949298
0.026025174668356 -1.1882684170066
0.026041801516891 -1.1869573918285
0.026058428365425 -1.186276224877
0.026075055213959 -1.1870444821869
0.026091682062494 -1.1878665415544
0.026108308911028 -1.1859730101366
0.026124935759562 -1.1831039522109
0.026141562608097 -1.1820992310001
0.026158189456631 -1.1819901158086
0.026174816305165 -1.1816321996771
0.0261914431537 -1.1803098242508
0.026208070002234 -1.1780886563302
0.026224696850768 -1.1772294429064
0.026241323699303 -1.1770917991522
0.026257950547837 -1.1768753317489
0.026274577396371 -1.176831837775
0.026291204244906 -1.1755035257406
0.02630783109344 -1.1741311200803
0.026324457941974 -1.1728196017297
0.026341084790509 -1.1714070455692
0.026357711639043 -1.1723574136313
0.026374338487577 -1.1738539380856
0.026390965336112 -1.1750345171411
0.026407592184646 -1.1747668738306
0.02642421903318 -1.1727534977199
0.026440845881715 -1.1717410258074
0.026457472730249 -1.1715383075818
0.026474099578783 -1.1717399526116
0.026490726427318 -1.1727424957757
0.026507353275852 -1.1742799624103
0.026523980124386 -1.1749910342372
0.026540606972921 -1.1753567214425
0.026557233821455 -1.1750091986907
0.026573860669989 -1.1752390839311
0.026590487518524 -1.1776486868825
0.026607114367058 -1.179719242384
0.026623741215592 -1.1793125778613
0.026640368064127 -1.1776176714282
0.026656994912661 -1.1756966316456
0.026673621761195 -1.1744403304219
0.02669024860973 -1.1740182778118
0.026706875458264 -1.1732615665581
0.026723502306798 -1.1734296845743
0.026740129155333 -1.1743795155709
0.026756756003867 -1.1758295766076
0.026773382852401 -1.1768043097379
0.026790009700936 -1.1781927382981
0.02680663654947 -1.1799048262443
0.026823263398004 -1.1804416618569
0.026839890246539 -1.180077172428
0.026856517095073 -1.1793014220384
0.026873143943607 -1.1789679503385
0.026889770792141 -1.1786828955269
0.026906397640676 -1.1772648701021
0.02692302448921 -1.1758426449092
0.026939651337744 -1.1765328856294
0.026956278186279 -1.1771346709916
0.026972905034813 -1.1763988965519
0.026989531883347 -1.1765619478545
0.027006158731882 -1.1775486087941
0.027022785580416 -1.1777159363421
0.02703941242895 -1.1782771350227
0.027056039277485 -1.1788864878538
0.027072666126019 -1.179471065157
0.027089292974553 -1.1813654289392
0.027105919823088 -1.1831155276387
0.027122546671622 -1.1843294533259
0.027139173520156 -1.1860486417582
0.027155800368691 -1.1869125615207
0.027172427217225 -1.1877511686279
0.027189054065759 -1.1900589300126
0.027205680914294 -1.1914720567179
0.027222307762828 -1.1916479001016
0.027238934611362 -1.192701967503
0.027255561459897 -1.1933841882235
0.027272188308431 -1.1929358511926
0.027288815156965 -1.1944670899483
0.0273054420055 -1.197106068435
0.027322068854034 -1.1966665092389
0.027338695702568 -1.1941255329653
0.027355322551103 -1.1925096711313
0.027371949399637 -1.1924094629332
0.027388576248171 -1.1935384016057
0.027405203096706 -1.1944273544311
0.02742182994524 -1.1941140339702
0.027438456793774 -1.1928366826676
0.027455083642309 -1.1924411861338
0.027471710490843 -1.1934125989202
0.027488337339377 -1.1945482149393
0.027504964187912 -1.1957249244347
0.027521591036446 -1.1954459775667
0.02753821788498 -1.1942967017865
0.027554844733515 -1.1939393707055
0.027571471582049 -1.195009351618
0.027588098430583 -1.1957189579033
0.027604725279118 -1.1951215069504
0.027621352127652 -1.194364803574
0.027637978976186 -1.1935851750641
0.027654605824721 -1.1955837701644
0.027671232673255 -1.1991319951457
0.027687859521789 -1.1997954095693
0.027704486370324 -1.1983717689289
0.027721113218858 -1.1978706852057
0.027737740067392 -1.1992412705491
0.027754366915927 -1.2011253675911
0.027770993764461 -1.2017151968889
0.027787620612995 -1.2009657559137
0.02780424746153 -1.2001788041742
0.027820874310064 -1.199852861114
0.027837501158598 -1.2005083131551
0.027854128007132 -1.2009475548665
0.027870754855667 -1.1987554570889
0.027887381704201 -1.1970913574751
0.027904008552735 -1.1986146581229
0.02792063540127 -1.2002465657369
0.027937262249804 -1.1997336611062
0.027953889098338 -1.1974189836503
0.027970515946873 -1.1956700762811
0.027987142795407 -1.1954200042096
0.028003769643941 -1.1968569994102
0.028020396492476 -1.1985542008027
0.02803702334101 -1.1989203671466
0.028053650189544 -1.1997536100928
0.028070277038079 -1.1999363196763
0.028086903886613 -1.1996108166732
0.028103530735147 -1.1994130720675
0.028120157583682 -1.198674625047
0.028136784432216 -1.1990809478704
0.02815341128075 -1.200386451218
0.028170038129285 -1.2009953312018
0.028186664977819 -1.2005758663642
0.028203291826353 -1.2008609509395
0.028219918674888 -1.2030121605283
0.028236545523422 -1.2043265863984
0.028253172371956 -1.2035438142652
0.028269799220491 -1.2026481785094
0.028286426069025 -1.2039432104075
0.028303052917559 -1.2074562557293
0.028319679766094 -1.209922047813
0.028336306614628 -1.2107707631676
0.028352933463162 -1.211153510192
0.028369560311697 -1.2119013196202
0.028386187160231 -1.2131577358552
0.028402814008765 -1.2138195062658
0.0284194408573 -1.2138858303749
0.028436067705834 -1.215106730719
0.028452694554368 -1.217900344737
0.028469321402903 -1.2199114574706
0.028485948251437 -1.2200335886993
0.028502575099971 -1.2200777263901
0.028519201948506 -1.2211723630267
0.02853582879704 -1.2215863335438
0.028552455645574 -1.2218816680102
0.028569082494109 -1.2234369101245
0.028585709342643 -1.2246438387075
0.028602336191177 -1.2245984912115
0.028618963039712 -1.2252000310664
0.028635589888246 -1.225873304928
0.02865221673678 -1.2258820342491
0.028668843585315 -1.2254872255291
0.028685470433849 -1.2246800978578
0.028702097282383 -1.2251703909213
0.028718724130918 -1.2261882396312
0.028735350979452 -1.2257562324421
0.028751977827986 -1.2257175693708
0.028768604676521 -1.2253824247491
0.028785231525055 -1.2229927308869
0.028801858373589 -1.2196173910585
0.028818485222123 -1.217515006461
0.028835112070658 -1.2159885886768
0.028851738919192 -1.2129809953335
0.028868365767726 -1.2105122328655
0.028884992616261 -1.2091254079462
0.028901619464795 -1.2069070304118
0.028918246313329 -1.2053085642612
0.028934873161864 -1.2048414519221
0.028951500010398 -1.2044566224686
0.028968126858932 -1.2038231813721
0.028984753707467 -1.201982214514
0.029001380556001 -1.1995884802107
0.029018007404535 -1.1972950183414
0.02903463425307 -1.1964683956533
0.029051261101604 -1.1949718551865
0.029067887950138 -1.1923290613062
0.029084514798673 -1.1911940243484
0.029101141647207 -1.1909422936442
0.029117768495741 -1.1905447066643
0.029134395344276 -1.1891987998226
0.02915102219281 -1.1878679629774
0.029167649041344 -1.1881093796175
0.029184275889879 -1.1881128602502
0.029200902738413 -1.1875282978039
0.029217529586947 -1.1885884137739
0.029234156435482 -1.1893593473941
0.029250783284016 -1.1904476191624
0.02926741013255 -1.1921709355648
0.029284036981085 -1.1920478109103
0.029300663829619 -1.1909484759706
0.029317290678153 -1.1887693063708
0.029333917526688 -1.1879158431418
0.029350544375222 -1.1882562703803
0.029367171223756 -1.1890847253605
0.029383798072291 -1.1892711319417
0.029400424920825 -1.187787041856
0.029417051769359 -1.1864951973103
0.029433678617894 -1.1868930343679
0.029450305466428 -1.1885505969644
0.029466932314962 -1.1897802195676
0.029483559163497 -1.1912318540119
0.029500186012031 -1.191993768836
0.029516812860565 -1.1921571072777
0.0295334397091 -1.1930714291489
0.029550066557634 -1.1955077961064
0.029566693406168 -1.1960677594509
0.029583320254703 -1.194042231846
0.029599947103237 -1.1928129261245
0.029616573951771 -1.1934685599605
0.029633200800306 -1.1936570141415
0.02964982764884 -1.1936613879234
0.029666454497374 -1.1951919748154
0.029683081345909 -1.1958748653991
0.029699708194443 -1.1962888812196
0.029716335042977 -1.1975517612151
0.029732961891512 -1.1985428662583
0.029749588740046 -1.1983441972597
0.02976621558858 -1.1976839293861
0.029782842437115 -1.1969296516217
0.029799469285649 -1.195269460138
0.029816096134183 -1.1936721324047
0.029832722982717 -1.1950913142258
0.029849349831252 -1.1972373328754
0.029865976679786 -1.1983307021028
0.02988260352832 -1.1990799354586
0.029899230376855 -1.1988993900397
0.029915857225389 -1.1976815921938
0.029932484073923 -1.195316032137
0.029949110922458 -1.1931274052797
0.029965737770992 -1.1909670865106
0.029982364619526 -1.189643079204
0.029998991468061 -1.1894757284234
0.030015618316595 -1.1875025740405
0.030032245165129 -1.1842561147427
0.030048872013664 -1.1816732402826
0.030065498862198 -1.1792601524328
0.030082125710732 -1.1782421802554
0.030098752559267 -1.1767559085499
0.030115379407801 -1.1740436804722
0.030132006256335 -1.1734842506491
0.03014863310487 -1.1737199991521
0.030165259953404 -1.1743305662052
0.030181886801938 -1.1748709721169
0.030198513650473 -1.1741176705816
0.030215140499007 -1.1733205775441
0.030231767347541 -1.1738603570162
0.030248394196076 -1.1749709836661
0.03026502104461 -1.174415635528
0.030281647893144 -1.1737832011305
0.030298274741679 -1.1750791970878
0.030314901590213 -1.1754235036533
0.030331528438747 -1.1736215765389
0.030348155287282 -1.1743691270976
0.030364782135816 -1.1772598225014
0.03038140898435 -1.1783851688383
0.030398035832885 -1.1785645464546
0.030414662681419 -1.1777270669681
0.030431289529953 -1.1755252273095
0.030447916378488 -1.1739152988832
0.030464543227022 -1.1732226314433
0.030481170075556 -1.1718841113962
0.030497796924091 -1.1714840614705
0.030514423772625 -1.1720385158465
0.030531050621159 -1.1717988072282
0.030547677469694 -1.1710166130187
0.030564304318228 -1.1702143353063
0.030580931166762 -1.1705116132887
0.030597558015297 -1.1709470035288
0.030614184863831 -1.170295279451
0.030630811712365 -1.1687355703966
0.0306474385609 -1.1673435061019
0.030664065409434 -1.165859706348
0.030680692257968 -1.1639719424975
0.030697319106503 -1.1626942409544
0.030713945955037 -1.1625835133665
0.030730572803571 -1.1625370067001
0.030747199652106 -1.1622109587915
0.03076382650064 -1.1614775367713
0.030780453349174 -1.1593517144139
0.030797080197708 -1.1571319244962
0.030813707046243 -1.154469290994
0.030830333894777 -1.151613320739
0.030846960743311 -1.1485954652289
0.030863587591846 -1.1461838046522
0.03088021444038 -1.1444114168726
0.030896841288914 -1.1431173180142
0.030913468137449 -1.144244699847
0.030930094985983 -1.1454357526747
0.030946721834517 -1.1459614582973
0.030963348683052 -1.1465857403525
0.030979975531586 -1.1461765683642
0.03099660238012 -1.146513386955
0.031013229228655 -1.1469704494909
0.031029856077189 -1.1457217699215
0.031046482925723 -1.1455322041727
0.031063109774258 -1.1473855052678
0.031079736622792 -1.1492462642148
0.031096363471326 -1.1506089949681
0.031112990319861 -1.1498631343963
0.031129617168395 -1.1482882511643
0.031146244016929 -1.1484642469593
0.031162870865464 -1.1496143298007
0.031179497713998 -1.1493724091934
0.031196124562532 -1.1469621932664
0.031212751411067 -1.1471744976288
0.031229378259601 -1.1501131452868
0.031246005108135 -1.1522949779794
0.03126263195667 -1.1534186600802
0.031279258805204 -1.1549616578066
0.031295885653738 -1.1579546529706
0.031312512502273 -1.1617814143108
0.031329139350807 -1.1647799274309
0.031345766199341 -1.1673724768906
0.031362393047876 -1.1697861949108
0.03137901989641 -1.1707778239366
0.031395646744944 -1.1716162370054
0.031412273593479 -1.17336654995
0.031428900442013 -1.1753800317116
0.031445527290547 -1.1764185089902
0.031462154139082 -1.1756669953725
0.031478780987616 -1.1758436365335
0.03149540783615 -1.1764727511292
0.031512034684685 -1.1765562111498
0.031528661533219 -1.1776564142017
0.031545288381753 -1.1777791689784
0.031561915230288 -1.1773084044889
0.031578542078822 -1.1775098164114
0.031595168927356 -1.1791057814779
0.031611795775891 -1.1814157421606
0.031628422624425 -1.1820924849481
0.031645049472959 -1.1835271593472
0.031661676321494 -1.1849644919803
0.031678303170028 -1.1845293684732
0.031694930018562 -1.1849941125423
0.031711556867097 -1.1855987296095
0.031728183715631 -1.1858744033755
0.031744810564165 -1.1865618305929
0.0317614374127 -1.1871309904441
0.031778064261234 -1.1871174401354
0.031794691109768 -1.1869343468164
0.031811317958302 -1.1873914557894
0.031827944806837 -1.1887100710303
0.031844571655371 -1.1895733853371
0.031861198503905 -1.1900786770957
0.03187782535244 -1.1909025512812
0.031894452200974 -1.1903931595761
0.031911079049508 -1.1887244493427
0.031927705898043 -1.1855447677027
0.031944332746577 -1.1833364955657
0.031960959595111 -1.1827466369443
0.031977586443646 -1.1816177836089
0.03199421329218 -1.182021798768
0.032010840140714 -1.1817973425497
0.032027466989249 -1.1808898777062
0.032044093837783 -1.1816704319527
0.032060720686317 -1.1820002642862
0.032077347534852 -1.1816484441759
0.032093974383386 -1.1813002307889
0.03211060123192 -1.1800551932749
0.032127228080455 -1.1765572816396
0.032143854928989 -1.1722476733582
0.032160481777523 -1.1696551551468
0.032177108626058 -1.1674255049164
0.032193735474592 -1.1652445690629
0.032210362323126 -1.1642142693439
0.032226989171661 -1.164269792575
0.032243616020195 -1.162374130715
0.032260242868729 -1.1571325183375
0.032276869717264 -1.1511462216289
0.032293496565798 -1.1469829468424
0.032310123414332 -1.144890049883
0.032326750262867 -1.142995919782
0.032343377111401 -1.1405828050507
0.032360003959935 -1.1380936045391
0.03237663080847 -1.1363132099206
0.032393257657004 -1.1354799367908
0.032409884505538 -1.1353254170579
0.032426511354073 -1.135845202736
0.032443138202607 -1.136533764547
0.032459765051141 -1.1352738633626
0.032476391899676 -1.1331328920956
0.03249301874821 -1.1321303178654
0.032509645596744 -1.1315920126655
0.032526272445279 -1.1303313088114
0.032542899293813 -1.1290152245511
0.032559526142347 -1.1287145150541
0.032576152990882 -1.1272385806942
0.032592779839416 -1.1238332840484
0.03260940668795 -1.1213340667029
0.032626033536485 -1.1198474108052
0.032642660385019 -1.1183300769634
0.032659287233553 -1.1182897286763
0.032675914082088 -1.1206404715144
0.032692540930622 -1.1235736490232
0.032709167779156 -1.1256054201752
0.032725794627691 -1.1284336227327
0.032742421476225 -1.1325559441839
0.032759048324759 -1.1353630370246
0.032775675173293 -1.135315259159
0.032792302021828 -1.1373990764132
0.032808928870362 -1.1423401118308
0.032825555718896 -1.1451643410592
0.032842182567431 -1.1472282398099
0.032858809415965 -1.149441878913
0.032875436264499 -1.1511244261062
0.032892063113034 -1.1526945389176
0.032908689961568 -1.1538287736618
0.032925316810102 -1.1547535595464
0.032941943658637 -1.1573272210381
0.032958570507171 -1.1621151179962
0.032975197355705 -1.1653207602153
0.03299182420424 -1.1657412923839
0.033008451052774 -1.1662185357156
0.033025077901308 -1.1677396998596
0.033041704749843 -1.17024530244
0.033058331598377 -1.1733867385606
0.033074958446911 -1.1755420636181
0.033091585295446 -1.1758218632527
0.03310821214398 -1.1763234556007
0.033124838992514 -1.1786847030489
0.033141465841049 -1.1808042609171
0.033158092689583 -1.1821845101232
0.033174719538117 -1.1837183975693
0.033191346386652 -1.186298329017
0.033207973235186 -1.1897928670055
0.03322460008372 -1.1917711302392
0.033241226932255 -1.1941509924412
0.033257853780789 -1.1973400530777
0.033274480629323 -1.1998970544388
0.033291107477858 -1.200535110489
0.033307734326392 -1.2011130478583
0.033324361174926 -1.2045205118584
0.033340988023461 -1.207406673059
0.033357614871995 -1.2085570003918
