# Microphone Coordinates: (-0.5, -0.866025, 0) m
# Propagation distance from average source location: 2570.52 m
# Column 1: time (s)
# Column 2: Total Acoustic Pressure (Pa)
0.023980072298634 -1.1655266315554
0.023996699147168 -1.1653774322443
0.024013325995703 -1.1663995724051
0.024029952844237 -1.1683437514172
0.024046579692771 -1.1712305429483
0.024063206541306 -1.1739665236943
0.02407983338984 -1.1756984708416
0.024096460238374 -1.1783692911759
0.024113087086909 -1.1816070172173
0.024129713935443 -1.1853271089778
0.024146340783977 -1.1899360142381
0.024162967632512 -1.1936578377977
0.024179594481046 -1.1961600769155
0.02419622132958 -1.1985376493226
0.024212848178115 -1.2005325472785
0.024229475026649 -1.2029718518719
0.024246101875183 -1.2032814004387
0.024262728723718 -1.2019390630603
0.024279355572252 -1.2009396567572
0.024295982420786 -1.2013059374837
0.024312609269321 -1.2025856335948
0.024329236117855 -1.2019403632667
0.024345862966389 -1.2004169590704
0.024362489814924 -1.1981337314339
0.024379116663458 -1.1961269567994
0.024395743511992 -1.1969439991112
0.024412370360527 -1.1977262692693
0.024428997209061 -1.1977925825122
0.024445624057595 -1.1990678756229
0.02446225090613 -1.1998140909596
0.024478877754664 -1.20016114914
0.024495504603198 -1.2014674363387
0.024512131451733 -1.202536229207
0.024528758300267 -1.2035254427366
0.024545385148801 -1.2040259699699
0.024562011997336 -1.204078939505
0.02457863884587 -1.2048237606695
0.024595265694404 -1.2058028365369
0.024611892542939 -1.2058904103337
0.024628519391473 -1.2067604315245
0.024645146240007 -1.2107287280174
0.024661773088542 -1.2127115212163
0.024678399937076 -1.2126123510181
0.02469502678561 -1.2132596570583
0.024711653634145 -1.2141868853145
0.024728280482679 -1.2153273556652
0.024744907331213 -1.2160170624513
0.024761534179748 -1.2156708510646
0.024778161028282 -1.2143460084964
0.024794787876816 -1.2137029717033
0.024811414725351 -1.2154860610108
0.024828041573885 -1.2179573684489
0.024844668422419 -1.2190461231808
0.024861295270954 -1.2189749049327
0.024877922119488 -1.2174192218804
0.024894548968022 -1.2155832824741
0.024911175816556 -1.2154698780424
0.024927802665091 -1.2168176604271
0.024944429513625 -1.2182636559414
0.024961056362159 -1.2184060468825
0.024977683210694 -1.2176514062269
0.024994310059228 -1.2190473118529
0.025010936907762 -1.2201145263063
0.025027563756297 -1.2189349300788
0.025044190604831 -1.2163490103728
0.025060817453365 -1.2110097927752
0.0250774443019 -1.2067990083303
0.025094071150434 -1.2061294265204
0.025110697998968 -1.2064344302862
0.025127324847503 -1.206657892774
0.025143951696037 -1.2062212815783
0.025160578544571 -1.207539899883
0.025177205393106 -1.2093485767718
0.02519383224164 -1.2112841415216
0.025210459090174 -1.2149800059795
0.025227085938709 -1.2176713754316
0.025243712787243 -1.218061360444
0.025260339635777 -1.217015301214
0.025276966484312 -1.2173620012442
0.025293593332846 -1.2180593334467
0.02531022018138 -1.2174422743712
0.025326847029915 -1.2158848767665
0.025343473878449 -1.2144770444473
0.025360100726983 -1.2152898356672
0.025376727575518 -1.2154355977984
0.025393354424052 -1.2120004757974
0.025409981272586 -1.2071863968277
0.025426608121121 -1.2042702128214
0.025443234969655 -1.2040687192117
0.025459861818189 -1.2050977870358
0.025476488666724 -1.2064482627835
0.025493115515258 -1.205349623637
0.025509742363792 -1.2037928991794
0.025526369212327 -1.2041728864657
0.025542996060861 -1.2046388124763
0.025559622909395 -1.2042914504199
0.02557624975793 -1.2034641596554
0.025592876606464 -1.2036486000143
0.025609503454998 -1.2043316132153
0.025626130303533 -1.2044345754703
0.025642757152067 -1.2056773272922
0.025659384000601 -1.2082578842614
0.025676010849136 -1.2108407734725
0.02569263769767 -1.2144315334746
0.025709264546204 -1.2171493021208
0.025725891394739 -1.2186797135598
0.025742518243273 -1.2193735114883
0.025759145091807 -1.218440412086
0.025775771940342 -1.2180517327346
0.025792398788876 -1.2176821720005
0.02580902563741 -1.2172663658617
0.025825652485945 -1.2177823484147
0.025842279334479 -1.21825532763
0.025858906183013 -1.2178884479524
0.025875533031547 -1.2166910458807
0.025892159880082 -1.2171770907516
0.025908786728616 -1.2189656002595
0.02592541357715 -1.2204386429587
0.025942040425685 -1.2217535584466
0.025958667274219 -1.2216913602782
0.025975294122753 -1.221207186534
0.025991920971288 -1.220199822972
0.026008547819822 -1.2182220387796
0.026025174668356 -1.2171861881161
0.026041801516891 -1.2170574909044
0.026058428365425 -1.2167948084133
0.026075055213959 -1.2148212989309
0.026091682062494 -1.2132358937364
0.026108308911028 -1.2119309449037
0.026124935759562 -1.2104668988279
0.026141562608097 -1.2107604750864
0.026158189456631 -1.2101879911886
0.026174816305165 -1.2088789982686
0.0261914431537 -1.2067181395164
0.026208070002234 -1.2043291389183
0.026224696850768 -1.2035979393483
0.026241323699303 -1.2041550893519
0.026257950547837 -1.2061712132339
0.026274577396371 -1.2064098658929
0.026291204244906 -1.2042227096556
0.02630783109344 -1.2024198583654
0.026324457941974 -1.2008386148078
0.026341084790509 -1.1998818791734
0.026357711639043 -1.2012946915752
0.026374338487577 -1.2034395230967
0.026390965336112 -1.2030654423265
0.026407592184646 -1.2022233713615
0.02642421903318 -1.2024317633744
0.026440845881715 -1.2028150697838
0.026457472730249 -1.2026238739909
0.026474099578783 -1.202071825431
0.026490726427318 -1.2022408718626
0.026507353275852 -1.20355703074
0.026523980124386 -1.2044065031411
0.026540606972921 -1.2037629931602
0.026557233821455 -1.2033567403763
0.026573860669989 -1.2043592484815
0.026590487518524 -1.2057805214964
0.026607114367058 -1.2067174832804
0.026623741215592 -1.2083930967002
0.026640368064127 -1.2099492974566
0.026656994912661 -1.209103563104
0.026673621761195 -1.2074303595937
0.02669024860973 -1.2052558591092
0.026706875458264 -1.2028985332118
0.026723502306798 -1.2021133368065
0.026740129155333 -1.2017860776075
0.026756756003867 -1.2033112049639
0.026773382852401 -1.2059665043229
0.026790009700936 -1.2067550785368
0.02680663654947 -1.208078511409
0.026823263398004 -1.2101765289359
0.026839890246539 -1.211011664782
0.026856517095073 -1.2109689149573
0.026873143943607 -1.2107380068398
0.026889770792141 -1.2102729981764
0.026906397640676 -1.2081199018183
0.02692302448921 -1.2063299414256
0.026939651337744 -1.206520523148
0.026956278186279 -1.2071556881283
0.026972905034813 -1.2064100697528
0.026989531883347 -1.2052497665022
0.027006158731882 -1.2061374177157
0.027022785580416 -1.2072101017602
0.02703941242895 -1.2072609820094
0.027056039277485 -1.2064816439953
0.027072666126019 -1.2067116977089
0.027089292974553 -1.2091624004979
0.027105919823088 -1.2107990215692
0.027122546671622 -1.2119502825697
0.027139173520156 -1.2134789844289
0.027155800368691 -1.2152021119759
0.027172427217225 -1.2170431719054
0.027189054065759 -1.2177768634824
0.027205680914294 -1.2181846497849
0.027222307762828 -1.2191333318841
0.027238934611362 -1.2210168201992
0.027255561459897 -1.2236868476427
0.027272188308431 -1.2248479298077
0.027288815156965 -1.2250389566144
0.0273054420055 -1.2262040192141
0.027322068854034 -1.2268044791042
0.027338695702568 -1.2254242062274
0.027355322551103 -1.2231581386705
0.027371949399637 -1.2226586766694
0.027388576248171 -1.2233880733647
0.027405203096706 -1.2227679233649
0.02742182994524 -1.2217999299736
0.027438456793774 -1.221481915376
0.027455083642309 -1.2226133610259
0.027471710490843 -1.2239421347054
0.027488337339377 -1.223391739533
0.027504964187912 -1.2219969032775
0.027521591036446 -1.2215444740558
0.02753821788498 -1.2216070913216
0.027554844733515 -1.2214124923139
0.027571471582049 -1.2232438545196
0.027588098430583 -1.2248791921561
0.027604725279118 -1.2235220128322
0.027621352127652 -1.2226481838861
0.027637978976186 -1.222113364562
0.027654605824721 -1.2227488000847
0.027671232673255 -1.2252972101913
0.027687859521789 -1.2245590915736
0.027704486370324 -1.2231105840786
0.027721113218858 -1.2253440789427
0.027737740067392 -1.2266614161266
0.027754366915927 -1.2269053222968
0.027770993764461 -1.2287835030841
0.027787620612995 -1.2293353414092
0.02780424746153 -1.2291694803102
0.027820874310064 -1.2290640627199
0.027837501158598 -1.2286380474584
0.027854128007132 -1.228667108082
0.027870754855667 -1.2269075119676
0.027887381704201 -1.2245488582489
0.027904008552735 -1.2237136909384
0.02792063540127 -1.2235466425951
0.027937262249804 -1.223454452294
0.027953889098338 -1.2223496285241
0.027970515946873 -1.221079192236
0.027987142795407 -1.2217606361388
0.028003769643941 -1.2231429888902
0.028020396492476 -1.2241507158719
0.02803702334101 -1.2261695196905
0.028053650189544 -1.2278757025736
0.028070277038079 -1.2272413534367
0.028086903886613 -1.2267282483202
0.028103530735147 -1.2264159947519
0.028120157583682 -1.2269539115793
0.028136784432216 -1.2284583112897
0.02815341128075 -1.2271927399634
0.028170038129285 -1.2251278393482
0.028186664977819 -1.2252984343875
0.028203291826353 -1.2273892816319
0.028219918674888 -1.2297083723
0.028236545523422 -1.2310233467118
0.028253172371956 -1.2311705704225
0.028269799220491 -1.2313035742795
0.028286426069025 -1.2324410392015
0.028303052917559 -1.2344051206738
0.028319679766094 -1.2359409876426
0.028336306614628 -1.2367118182734
0.028352933463162 -1.2388021194437
0.028369560311697 -1.2416936824534
0.028386187160231 -1.2432135364836
0.028402814008765 -1.2435782972832
0.0284194408573 -1.2444315298032
0.028436067705834 -1.2452111668594
0.028452694554368 -1.2463237653067
0.028469321402903 -1.2478079031862
0.028485948251437 -1.2482139131189
0.028502575099971 -1.2494310603865
0.028519201948506 -1.2513243395776
0.02853582879704 -1.2519807016925
0.028552455645574 -1.2523689166662
0.028569082494109 -1.2527972461158
0.028585709342643 -1.2523776240878
0.028602336191177 -1.2540412691254
0.028618963039712 -1.2562950740705
0.028635589888246 -1.2564493429247
0.02865221673678 -1.2569901316576
0.028668843585315 -1.2572396235358
0.028685470433849 -1.2568841788963
0.028702097282383 -1.2562726312939
0.028718724130918 -1.2558805097035
0.028735350979452 -1.2576087491268
0.028751977827986 -1.2588771380323
0.028768604676521 -1.2576421549385
0.028785231525055 -1.2554749828249
0.028801858373589 -1.253537612464
0.028818485222123 -1.2512801482009
0.028835112070658 -1.2490495519907
0.028851738919192 -1.2486395039041
0.028868365767726 -1.2456721344972
0.028884992616261 -1.2401923802588
0.028901619464795 -1.2373802053219
0.028918246313329 -1.2363107988459
0.028934873161864 -1.2349688733482
0.028951500010398 -1.2338973115471
0.028968126858932 -1.2344182709411
0.028984753707467 -1.2348160534817
0.029001380556001 -1.2327180151646
0.029018007404535 -1.2300600160156
0.02903463425307 -1.2277259614521
0.029051261101604 -1.2248710777239
0.029067887950138 -1.2222308562948
0.029084514798673 -1.2207803410266
0.029101141647207 -1.2197095337824
0.029117768495741 -1.2174571223274
0.029134395344276 -1.2156839358396
0.02915102219281 -1.2168343051599
0.029167649041344 -1.218007002837
0.029184275889879 -1.215831855567
0.029200902738413 -1.2142452599458
0.029217529586947 -1.2158390353463
0.029234156435482 -1.2183490916552
0.029250783284016 -1.2195523322835
0.02926741013255 -1.2198466519758
0.029284036981085 -1.2192560506122
0.029300663829619 -1.2178806571396
0.029317290678153 -1.2189915250231
0.029333917526688 -1.2205657266278
0.029350544375222 -1.2193164183268
0.029367171223756 -1.2179365076723
0.029383798072291 -1.2176276584146
0.029400424920825 -1.2176358262241
0.029417051769359 -1.2169075912861
0.029433678617894 -1.2154906668827
0.029450305466428 -1.2156739857197
0.029466932314962 -1.2166115205046
0.029483559163497 -1.2171266388812
0.029500186012031 -1.2189314207889
0.029516812860565 -1.2201891977032
0.0295334397091 -1.2201298821398
0.029550066557634 -1.2228441819738
0.029566693406168 -1.2252502400577
0.029583320254703 -1.2244316518199
0.029599947103237 -1.223631267458
0.029616573951771 -1.2246326753799
0.029633200800306 -1.225207036614
0.02964982764884 -1.225382308388
0.029666454497374 -1.2262811990607
0.029683081345909 -1.2270734643843
0.029699708194443 -1.22772673518
0.029716335042977 -1.2272762198026
0.029732961891512 -1.2286269627466
0.029749588740046 -1.2310824976804
0.02976621558858 -1.2309827050912
0.029782842437115 -1.2295466437196
0.029799469285649 -1.2289093697832
0.029816096134183 -1.2285015629334
0.029832722982717 -1.2275932194695
0.029849349831252 -1.2286470407721
0.029865976679786 -1.2297334378306
0.02988260352832 -1.2294131411598
0.029899230376855 -1.2297288643483
0.029915857225389 -1.2289706624223
0.029932484073923 -1.2264953036643
0.029949110922458 -1.2242498553093
0.029965737770992 -1.2224289820312
0.029982364619526 -1.2202593525891
0.029998991468061 -1.2192906954797
0.030015618316595 -1.2184946372641
0.030032245165129 -1.2161395975793
0.030048872013664 -1.2141159619654
0.030065498862198 -1.2129196168257
0.030082125710732 -1.2102235924425
0.030098752559267 -1.2058439110934
0.030115379407801 -1.2022413475874
0.030132006256335 -1.200885528001
0.03014863310487 -1.2010467943921
0.030165259953404 -1.2015913519737
0.030181886801938 -1.2006998684002
0.030198513650473 -1.1998190947391
0.030215140499007 -1.2011684983689
0.030231767347541 -1.2032852439534
0.030248394196076 -1.2034310293496
0.03026502104461 -1.2014745391187
0.030281647893144 -1.2017629522045
0.030298274741679 -1.2031246013758
0.030314901590213 -1.2034294200126
0.030331528438747 -1.2046563686047
0.030348155287282 -1.2049561749286
0.030364782135816 -1.2048647088452
0.03038140898435 -1.2050931964409
0.030398035832885 -1.2043948606834
0.030414662681419 -1.205614389158
0.030431289529953 -1.2068755665865
0.030447916378488 -1.2061343114136
0.030464543227022 -1.2056479752282
0.030481170075556 -1.2063418775901
0.030497796924091 -1.2060658196657
0.030514423772625 -1.2045388650392
0.030531050621159 -1.2037247708002
0.030547677469694 -1.2031921058692
0.030564304318228 -1.2017520419098
0.030580931166762 -1.2003726328573
0.030597558015297 -1.2006534299158
0.030614184863831 -1.2009469008194
0.030630811712365 -1.2000726168435
0.0306474385609 -1.1994384979138
0.030664065409434 -1.1994930080497
0.030680692257968 -1.1973081610147
0.030697319106503 -1.1931705762877
0.030713945955037 -1.1919310684863
0.030730572803571 -1.1937552317436
0.030747199652106 -1.1950763006597
0.03076382650064 -1.1939048841729
0.030780453349174 -1.1917794846725
0.030797080197708 -1.1906105059185
0.030813707046243 -1.18938116685
0.030830333894777 -1.1864009761287
0.030846960743311 -1.1815465982992
0.030863587591846 -1.1771132200852
0.03088021444038 -1.1743366151934
0.030896841288914 -1.1724642667239
0.030913468137449 -1.1729706835895
0.030930094985983 -1.1742960791918
0.030946721834517 -1.1736973231969
0.030963348683052 -1.1728783801543
0.030979975531586 -1.1738233720352
0.03099660238012 -1.1756927807425
0.031013229228655 -1.175246823549
0.031029856077189 -1.1739302104236
0.031046482925723 -1.1741922226544
0.031063109774258 -1.1755324232105
0.031079736622792 -1.1771685540187
0.031096363471326 -1.1773563485966
0.031112990319861 -1.176707650097
0.031129617168395 -1.1767720150388
0.031146244016929 -1.1758260284143
0.031162870865464 -1.1743380985355
0.031179497713998 -1.1745362025602
0.031196124562532 -1.1754571877878
0.031212751411067 -1.1760693536025
0.031229378259601 -1.1772869531924
0.031246005108135 -1.178747358506
0.03126263195667 -1.1796212184732
0.031279258805204 -1.180966406052
0.031295885653738 -1.1828588294233
0.031312512502273 -1.1865996671211
0.031329139350807 -1.1909691497843
0.031345766199341 -1.1930199051457
0.031362393047876 -1.1937796989952
0.03137901989641 -1.1958350147491
0.031395646744944 -1.1990076821819
0.031412273593479 -1.2008837651616
0.031428900442013 -1.2032317562338
0.031445527290547 -1.2053001428193
0.031462154139082 -1.2049931632321
0.031478780987616 -1.2037157194647
0.03149540783615 -1.2037733926574
0.031512034684685 -1.205624763965
0.031528661533219 -1.206578540784
0.031545288381753 -1.2058961595582
0.031561915230288 -1.2055084185626
0.031578542078822 -1.2070421283242
0.031595168927356 -1.2088730545942
0.031611795775891 -1.2097476912013
0.031628422624425 -1.2110763712913
0.031645049472959 -1.2124804937911
0.031661676321494 -1.2129949164158
0.031678303170028 -1.2130539002603
0.031694930018562 -1.2124088662431
0.031711556867097 -1.2128894951117
0.031728183715631 -1.2149940183995
0.031744810564165 -1.2171788545537
0.0317614374127 -1.2191998420313
0.031778064261234 -1.2197132226543
0.031794691109768 -1.2188197308004
0.031811317958302 -1.2182231839121
0.031827944806837 -1.2191530811454
0.031844571655371 -1.2203493356654
0.031861198503905 -1.2214835991968
0.03187782535244 -1.2234358014224
0.031894452200974 -1.2246771330064
0.031911079049508 -1.2243075412914
0.031927705898043 -1.2228278874747
0.031944332746577 -1.2216785109907
0.031960959595111 -1.2198297512945
0.031977586443646 -1.2179483935434
0.03199421329218 -1.2171053789542
0.032010840140714 -1.216061342516
0.032027466989249 -1.2155622672297
0.032044093837783 -1.2156834636212
0.032060720686317 -1.2160401831763
0.032077347534852 -1.2166230144397
0.032093974383386 -1.2166007930148
0.03211060123192 -1.2156414753313
0.032127228080455 -1.2137579473992
0.032143854928989 -1.2118493320441
0.032160481777523 -1.2094740475844
0.032177108626058 -1.2060555126254
0.032193735474592 -1.2021304792362
0.032210362323126 -1.1989186685994
0.032226989171661 -1.1988144285861
0.032243616020195 -1.1975167349412
0.032260242868729 -1.1918374026267
0.032276869717264 -1.1874015656388
0.032293496565798 -1.1857411901415
0.032310123414332 -1.1822863944079
0.032326750262867 -1.1782345506254
0.032343377111401 -1.1741904238295
0.032360003959935 -1.1700277151394
0.03237663080847 -1.1682276354882
0.032393257657004 -1.167333362971
0.032409884505538 -1.1672330662959
0.032426511354073 -1.1678297586488
0.032443138202607 -1.166020550486
0.032459765051141 -1.1639972685937
0.032476391899676 -1.1629405508724
0.03249301874821 -1.1622712388495
0.032509645596744 -1.1618341007362
0.032526272445279 -1.1605036266464
0.032542899293813 -1.1597803433465
0.032559526142347 -1.1590502626054
0.032576152990882 -1.1556486846821
0.032592779839416 -1.1518530511667
0.03260940668795 -1.1505792933862
0.032626033536485 -1.1496861350304
0.032642660385019 -1.1484150466046
0.032659287233553 -1.1467033963569
0.032675914082088 -1.1453396733942
0.032692540930622 -1.1470738514522
0.032709167779156 -1.1513710829415
0.032725794627691 -1.1546636238506
0.032742421476225 -1.1561799139005
0.032759048324759 -1.1576052040909
0.032775675173293 -1.1599794132098
0.032792302021828 -1.1627713025316
0.032808928870362 -1.1658538145471
0.032825555718896 -1.1691042601397
0.032842182567431 -1.1724424996355
0.032858809415965 -1.1752367150716
0.032875436264499 -1.1761495742385
0.032892063113034 -1.1776801180098
0.032908689961568 -1.180640103329
0.032925316810102 -1.1822041758817
0.032941943658637 -1.1834173266989
0.032958570507171 -1.1854508408448
0.032975197355705 -1.1880862221911
0.03299182420424 -1.1905141007314
0.033008451052774 -1.1916459180716
0.033025077901308 -1.1929917459465
0.033041704749843 -1.1948032437865
0.033058331598377 -1.196436514095
0.033074958446911 -1.1982425066508
0.033091585295446 -1.2008556615948
0.03310821214398 -1.203196765677
0.033124838992514 -1.2042160750382
0.033141465841049 -1.2040078692813
0.033158092689583 -1.2038675714762
0.033174719538117 -1.2056389298393
0.033191346386652 -1.2083533684438
0.033207973235186 -1.2109775080504
0.03322460008372 -1.2130009956096
0.033241226932255 -1.2147497546323
0.033257853780789 -1.2178083002475
0.033274480629323 -1.221488743559
0.033291107477858 -1.2242259609626
0.033307734326392 -1.2265871757026
0.033324361174926 -1.2283700078036
0.033340988023461 -1.230387699413
0.033357614871995 -1.2329567576464
0.033374241720529 -1.2351493778391
0.033390868569064 -1.2363226448043
0.033407495417598 -1.2364433637788
0.033424122266132 -1.2372559799262
