# Microphone Coordinates: (-0.642788, -0.766044, 0) m
# Propagation distance from average source location: 2570.66 m
# Column 1: time (s)
# Column 2: Total Acoustic Pressure (Pa)
0.024113087086909 -1.1963319075896
0.024129713935443 -1.1991336569529
0.024146340783977 -1.201716304773
0.024162967632512 -1.2044436914894
0.024179594481046 -1.2062642843904
0.02419622132958 -1.2085775235467
0.024212848178115 -1.2115797343265
0.024229475026649 -1.215411258848
0.024246101875183 -1.2182935962267
0.024262728723718 -1.2205834064007
0.024279355572252 -1.2231874504238
0.024295982420786 -1.2240402488304
0.024312609269321 -1.2242530756343
0.024329236117855 -1.2233092386679
0.024345862966389 -1.2208345709137
0.024362489814924 -1.2195078406331
0.024379116663458 -1.218960739414
0.024395743511992 -1.2174159487161
0.024412370360527 -1.216226831463
0.024428997209061 -1.215919521569
0.024445624057595 -1.2163542398042
0.02446225090613 -1.2172882931768
0.024478877754664 -1.2184619831096
0.024495504603198 -1.2194795478912
0.024512131451733 -1.2196625929685
0.024528758300267 -1.2202056978631
0.024545385148801 -1.2217228365397
0.024562011997336 -1.2242801562132
0.02457863884587 -1.2260713119465
0.024595265694404 -1.2274283841717
0.024611892542939 -1.2286335325294
0.024628519391473 -1.2289070262821
0.024645146240007 -1.2302330635027
0.024661773088542 -1.2320126958596
0.024678399937076 -1.2336929001899
0.02469502678561 -1.2356051782574
0.024711653634145 -1.2374480733355
0.024728280482679 -1.2379964111695
0.024744907331213 -1.2381368911129
0.024761534179748 -1.2403200214468
0.024778161028282 -1.2432448284155
0.024794787876816 -1.2447936782216
0.024811414725351 -1.2447407206695
0.024828041573885 -1.244557147355
0.024844668422419 -1.2444692207964
0.024861295270954 -1.2441185343167
0.024877922119488 -1.2439302490754
0.024894548968022 -1.2439322565136
0.024911175816556 -1.2439094187351
0.024927802665091 -1.2442373973438
0.024944429513625 -1.2447635576833
0.024961056362159 -1.2451016504903
0.024977683210694 -1.2456270768865
0.024994310059228 -1.2461718863124
0.025010936907762 -1.2462447512401
0.025027563756297 -1.2445093310281
0.025044190604831 -1.2414379905165
0.025060817453365 -1.2391014837994
0.0250774443019 -1.2377460465839
0.025094071150434 -1.23538750307
0.025110697998968 -1.2322472145069
0.025127324847503 -1.2296363613506
0.025143951696037 -1.2266866639129
0.025160578544571 -1.225650673337
0.025177205393106 -1.2267478233597
0.02519383224164 -1.227373676895
0.025210459090174 -1.2287986722764
0.025227085938709 -1.2321744679553
0.025243712787243 -1.2364129336689
0.025260339635777 -1.2390669701088
0.025276966484312 -1.2403823783185
0.025293593332846 -1.2405209943238
0.02531022018138 -1.2403606662832
0.025326847029915 -1.2416170841329
0.025343473878449 -1.242605016226
0.025360100726983 -1.2412425132503
0.025376727575518 -1.2387909135023
0.025393354424052 -1.2376299823995
0.025409981272586 -1.2373541758164
0.025426608121121 -1.2390651152898
0.025443234969655 -1.2395165088703
0.025459861818189 -1.2375958962797
0.025476488666724 -1.2344969639663
0.025493115515258 -1.2303431269038
0.025509742363792 -1.228991989854
0.025526369212327 -1.2281994921484
0.025542996060861 -1.225879717756
0.025559622909395 -1.2235222520411
0.02557624975793 -1.2222000844384
0.025592876606464 -1.2216051717991
0.025609503454998 -1.2210778501075
0.025626130303533 -1.221821404383
0.025642757152067 -1.2237681679984
0.025659384000601 -1.2257269288379
0.025676010849136 -1.227244270381
0.02569263769767 -1.2292517177551
0.025709264546204 -1.2327087785691
0.025725891394739 -1.2368335445909
0.025742518243273 -1.2398920703395
0.025759145091807 -1.2427719349425
0.025775771940342 -1.2458889458349
0.025792398788876 -1.2474292541429
0.02580902563741 -1.2472568314807
0.025825652485945 -1.2471193418366
0.025842279334479 -1.246299954181
0.025858906183013 -1.2466610369035
0.025875533031547 -1.2484010606496
0.025892159880082 -1.2494874095176
0.025908786728616 -1.2494106044226
0.02592541357715 -1.2479409534806
0.025942040425685 -1.2473156615471
0.025958667274219 -1.2471787814404
0.025975294122753 -1.2466544564045
0.025991920971288 -1.2462304667474
0.026008547819822 -1.2464487360951
0.026025174668356 -1.2463904114056
0.026041801516891 -1.2445294483846
0.026058428365425 -1.24285262442
0.026075055213959 -1.2411804304932
0.026091682062494 -1.2369288129331
0.026108308911028 -1.2327000113714
0.026124935759562 -1.2308309459316
0.026141562608097 -1.2309244788894
0.026158189456631 -1.2298246002843
0.026174816305165 -1.2272143840901
0.0261914431537 -1.226390166027
0.026208070002234 -1.2273645414178
0.026224696850768 -1.2277702344373
0.026241323699303 -1.2265743000348
0.026257950547837 -1.2253741601676
0.026274577396371 -1.2255623176638
0.026291204244906 -1.2259301774142
0.02630783109344 -1.2247224790968
0.026324457941974 -1.2241545409284
0.026341084790509 -1.2239232550726
0.026357711639043 -1.223935983843
0.026374338487577 -1.2257471227652
0.026390965336112 -1.2272392297496
0.026407592184646 -1.2284621955318
0.02642421903318 -1.2306859271175
0.026440845881715 -1.2321926572946
0.026457472730249 -1.2312078377306
0.026474099578783 -1.2304205710245
0.026490726427318 -1.2296351354519
0.026507353275852 -1.2279479099236
0.026523980124386 -1.2266401596944
0.026540606972921 -1.2264099437968
0.026557233821455 -1.2276931511063
0.026573860669989 -1.2285212740171
0.026590487518524 -1.2298797055549
0.026607114367058 -1.2322622276649
0.026623741215592 -1.2350006068862
0.026640368064127 -1.2373814448711
0.026656994912661 -1.238264745931
0.026673621761195 -1.2381383099213
0.02669024860973 -1.2369671745316
0.026706875458264 -1.2336246995288
0.026723502306798 -1.2288507075611
0.026740129155333 -1.226866197287
0.026756756003867 -1.2274496157179
0.026773382852401 -1.2287046033407
0.026790009700936 -1.2320304451372
0.02680663654947 -1.2342865914158
0.026823263398004 -1.2341304227391
0.026839890246539 -1.2345522968683
0.026856517095073 -1.2350418748179
0.026873143943607 -1.2352507233924
0.026889770792141 -1.2354945945993
0.026906397640676 -1.2350614111779
0.02692302448921 -1.2341578757923
0.026939651337744 -1.2337791475237
0.026956278186279 -1.234504468383
0.026972905034813 -1.2364421737158
0.026989531883347 -1.2370355503795
0.027006158731882 -1.2350714100243
0.027022785580416 -1.233325129149
0.02703941242895 -1.2331562632071
0.027056039277485 -1.2332181523514
0.027072666126019 -1.2333118367844
0.027089292974553 -1.2335310978834
0.027105919823088 -1.2337528117002
0.027122546671622 -1.23444621125
0.027139173520156 -1.2354631706644
0.027155800368691 -1.2366729394647
0.027172427217225 -1.2382431989557
0.027189054065759 -1.2405698559837
0.027205680914294 -1.2424571010967
0.027222307762828 -1.2444125561714
0.027238934611362 -1.2459101933928
0.027255561459897 -1.2472547554076
0.027272188308431 -1.2494373695682
0.027288815156965 -1.2496986221348
0.0273054420055 -1.249794922656
0.027322068854034 -1.2513822073358
0.027338695702568 -1.252879566859
0.027355322551103 -1.2540222610631
0.027371949399637 -1.2535373657625
0.027388576248171 -1.2508445423377
0.027405203096706 -1.2484505302708
0.02742182994524 -1.2479034541449
0.027438456793774 -1.2472760047938
0.027455083642309 -1.2466097086719
0.027471710490843 -1.2471732576581
0.027488337339377 -1.2473070355801
0.027504964187912 -1.245037596648
0.027521591036446 -1.2438333211825
0.02753821788498 -1.2444102388122
0.027554844733515 -1.2443259626942
0.027571471582049 -1.2464619317209
0.027588098430583 -1.2487331133699
0.027604725279118 -1.2481043687455
0.027621352127652 -1.2472836172963
0.027637978976186 -1.2457491777658
0.027654605824721 -1.2435517333979
0.027671232673255 -1.2445549554446
0.027687859521789 -1.2466405974777
0.027704486370324 -1.2467310689563
0.027721113218858 -1.247349196299
0.027737740067392 -1.2477369882671
0.027754366915927 -1.2477502659388
0.027770993764461 -1.2488323538729
0.027787620612995 -1.2506990054896
0.02780424746153 -1.2528015525521
0.027820874310064 -1.2538844161318
0.027837501158598 -1.2537777549497
0.027854128007132 -1.2517212053375
0.027870754855667 -1.2489450253747
0.027887381704201 -1.2478230481723
0.027904008552735 -1.2461516226595
0.02792063540127 -1.2433866751285
0.027937262249804 -1.2421439810957
0.027953889098338 -1.2409126225485
0.027970515946873 -1.2406589676982
0.027987142795407 -1.2420650901896
0.028003769643941 -1.2428241862301
0.028020396492476 -1.2440392681844
0.02803702334101 -1.2454235410798
0.028053650189544 -1.2450419075163
0.028070277038079 -1.2447496176701
0.028086903886613 -1.2452438805132
0.028103530735147 -1.246540829929
0.028120157583682 -1.2478299408919
0.028136784432216 -1.2472202796069
0.02815341128075 -1.2470083774613
0.028170038129285 -1.248307465411
0.028186664977819 -1.2492926630197
0.028203291826353 -1.2496876251008
0.028219918674888 -1.2501164343812
0.028236545523422 -1.2508251482533
0.028253172371956 -1.2520048049261
0.028269799220491 -1.2530583822395
0.028286426069025 -1.2537326772327
0.028303052917559 -1.255167570953
0.028319679766094 -1.2575272805966
0.028336306614628 -1.2601782176499
0.028352933463162 -1.2615651216744
0.028369560311697 -1.2615274347501
0.028386187160231 -1.262923936632
0.028402814008765 -1.2666227274204
0.0284194408573 -1.2698447871694
0.028436067705834 -1.2704722826452
0.028452694554368 -1.270148224959
0.028469321402903 -1.2709031657106
0.028485948251437 -1.2716758826951
0.028502575099971 -1.2733192348136
0.028519201948506 -1.2739137477204
0.02853582879704 -1.2734087485959
0.028552455645574 -1.2753487423966
0.028569082494109 -1.2781190463151
0.028585709342643 -1.279960009541
0.028602336191177 -1.2803410398776
0.028618963039712 -1.2796406039805
0.028635589888246 -1.2796703639705
0.02865221673678 -1.281615873964
0.028668843585315 -1.2828591918432
0.028685470433849 -1.2829403568224
0.028702097282383 -1.2849714291357
0.028718724130918 -1.2858338971084
0.028735350979452 -1.2842602373708
0.028751977827986 -1.2834000499111
0.028768604676521 -1.2828900294508
0.028785231525055 -1.2831142854367
0.028801858373589 -1.2833295301117
0.028818485222123 -1.2832801298874
0.028835112070658 -1.2829161525097
0.028851738919192 -1.2812145960028
0.028868365767726 -1.2782397154459
0.028884992616261 -1.2750425304123
0.028901619464795 -1.2712694577498
0.028918246313329 -1.2669932602523
0.028934873161864 -1.2642140934188
0.028951500010398 -1.2613546845355
0.028968126858932 -1.25877074464
0.028984753707467 -1.2574232331308
0.029001380556001 -1.2572169168041
0.029018007404535 -1.2570614517472
0.02903463425307 -1.2565070486814
0.029051261101604 -1.2551706352542
0.029067887950138 -1.252089328158
0.029084514798673 -1.2500679208707
0.029101141647207 -1.2472577709797
0.029117768495741 -1.2431664233643
0.029134395344276 -1.242544990059
0.02915102219281 -1.2434967505168
0.029167649041344 -1.2424152687937
0.029184275889879 -1.2413698322403
0.029200902738413 -1.24099566394
0.029217529586947 -1.2409145019391
0.029234156435482 -1.2400641232128
0.029250783284016 -1.2407803599427
0.02926741013255 -1.2426586106365
0.029284036981085 -1.2424902147337
0.029300663829619 -1.2432667958067
0.029317290678153 -1.2454370104361
0.029333917526688 -1.2463205223675
0.029350544375222 -1.2466964926596
0.029367171223756 -1.2467896821518
0.029383798072291 -1.2464993108391
0.029400424920825 -1.2462149747311
0.029417051769359 -1.2442636960472
0.029433678617894 -1.2412445643984
0.029450305466428 -1.2389242010327
0.029466932314962 -1.2367165243685
0.029483559163497 -1.2356291850186
0.029500186012031 -1.236190282665
0.029516812860565 -1.2381109583603
0.0295334397091 -1.2413472414223
0.029550066557634 -1.2424055040461
0.029566693406168 -1.2426550393756
0.029583320254703 -1.2448618920664
0.029599947103237 -1.248215275057
0.029616573951771 -1.2515470644182
0.029633200800306 -1.2538549935642
0.02964982764884 -1.2538423227421
0.029666454497374 -1.2530604145906
0.029683081345909 -1.2529924548028
0.029699708194443 -1.2538594894176
0.029716335042977 -1.2543289933424
0.029732961891512 -1.2542995216474
0.029749588740046 -1.2560929148642
0.02976621558858 -1.259109910577
0.029782842437115 -1.2620779930954
0.029799469285649 -1.2635517483531
0.029816096134183 -1.2629814437341
0.029832722982717 -1.2607120151778
0.029849349831252 -1.2575015105415
0.029865976679786 -1.2557430371708
0.02988260352832 -1.2563507054839
0.029899230376855 -1.2566779212507
0.029915857225389 -1.2563033909674
0.029932484073923 -1.2559172571506
0.029949110922458 -1.2557168351236
0.029965737770992 -1.2538065447977
0.029982364619526 -1.2504015179615
0.029998991468061 -1.2476587916408
0.030015618316595 -1.2453300966251
0.030032245165129 -1.2447742049486
0.030048872013664 -1.2446536555189
0.030065498862198 -1.2424985845056
0.030082125710732 -1.2383337002119
0.030098752559267 -1.2349698134863
0.030115379407801 -1.2334690067079
0.030132006256335 -1.2308898256777
0.03014863310487 -1.2270869772153
0.030165259953404 -1.2236475063212
0.030181886801938 -1.221626960036
0.030198513650473 -1.2207292398422
0.030215140499007 -1.2207742969001
0.030231767347541 -1.2214967841522
0.030248394196076 -1.2233774993386
0.03026502104461 -1.2246436864279
0.030281647893144 -1.2243546621649
0.030298274741679 -1.2255960820571
0.030314901590213 -1.2274071650203
0.030331528438747 -1.2280452505017
0.030348155287282 -1.2277044023319
0.030364782135816 -1.2274861115859
0.03038140898435 -1.2282694936556
0.030398035832885 -1.22865808235
0.030414662681419 -1.2288199813407
0.030431289529953 -1.2309424511548
0.030447916378488 -1.2336935977576
0.030464543227022 -1.2356907362446
0.030481170075556 -1.2365611377091
0.030497796924091 -1.2349758618463
0.030514423772625 -1.2332681974952
0.030531050621159 -1.2332006437388
0.030547677469694 -1.2320922044201
0.030564304318228 -1.2308141824163
0.030580931166762 -1.2297214948852
0.030597558015297 -1.2277595178496
0.030614184863831 -1.2264764429381
0.030630811712365 -1.2262390356127
0.0306474385609 -1.2264143602474
0.030664065409434 -1.2270193291192
0.030680692257968 -1.2271763737224
0.030697319106503 -1.2259313388282
0.030713945955037 -1.2233333283975
0.030730572803571 -1.2210275559325
0.030747199652106 -1.2212953626095
0.03076382650064 -1.2214193664979
0.030780453349174 -1.2214528069731
0.030797080197708 -1.2220310409158
0.030813707046243 -1.2210344530336
0.030830333894777 -1.219296532162
0.030846960743311 -1.2163392150983
0.030863587591846 -1.2120975709911
0.03088021444038 -1.2083828410701
0.030896841288914 -1.2052593660456
0.030913468137449 -1.2018598427652
0.030930094985983 -1.1994070822459
0.030946721834517 -1.1991848569626
0.030963348683052 -1.1993059049056
0.030979975531586 -1.1976014942984
0.03099660238012 -1.1963567494783
0.031013229228655 -1.1976092547937
0.031029856077189 -1.2007149150722
0.031046482925723 -1.202632050358
0.031063109774258 -1.203178562893
0.031079736622792 -1.203969808099
0.031096363471326 -1.2039498660761
0.031112990319861 -1.2027452984432
0.031129617168395 -1.2011313239782
0.031146244016929 -1.2010371488539
0.031162870865464 -1.2009312009959
0.031179497713998 -1.1999925686134
0.031196124562532 -1.1991951267874
0.031212751411067 -1.1995744299018
0.031229378259601 -1.1994267012469
0.031246005108135 -1.198115885622
0.03126263195667 -1.1994967649842
0.031279258805204 -1.2020724257089
0.031295885653738 -1.2056385853788
0.031312512502273 -1.2087898808508
0.031329139350807 -1.2096697402535
0.031345766199341 -1.2108349140762
0.031362393047876 -1.212757565948
0.03137901989641 -1.2149046452978
0.031395646744944 -1.2177070919071
0.031412273593479 -1.2210574295767
0.031428900442013 -1.2232096714714
0.031445527290547 -1.2242427182894
0.031462154139082 -1.2254083592556
0.031478780987616 -1.2279829347518
0.03149540783615 -1.2298001455926
0.031512034684685 -1.2306797899973
0.031528661533219 -1.2318491258666
0.031545288381753 -1.2329724010483
0.031561915230288 -1.2340065677883
0.031578542078822 -1.233525782073
0.031595168927356 -1.2328928049855
0.031611795775891 -1.233176405508
0.031628422624425 -1.2326008125653
0.031645049472959 -1.2314579543044
0.031661676321494 -1.2320261138047
0.031678303170028 -1.2342619342452
0.031694930018562 -1.2357104599518
0.031711556867097 -1.2363133120012
0.031728183715631 -1.2355741779666
0.031744810564165 -1.2361306907664
0.0317614374127 -1.2383492831793
0.031778064261234 -1.2395881467163
0.031794691109768 -1.2417248264159
0.031811317958302 -1.2443183650421
0.031827944806837 -1.2457558898725
0.031844571655371 -1.246308757693
0.031861198503905 -1.2474613691078
0.03187782535244 -1.2498737911894
0.031894452200974 -1.2530678366711
0.031911079049508 -1.2560713355085
0.031927705898043 -1.2585040367821
0.031944332746577 -1.2603461609265
0.031960959595111 -1.2601429612469
0.031977586443646 -1.2568023924829
0.03199421329218 -1.2525097903231
0.032010840140714 -1.2492186941824
0.032027466989249 -1.2472037365209
0.032044093837783 -1.246084531561
0.032060720686317 -1.2456141757554
0.032077347534852 -1.2456072362765
0.032093974383386 -1.2474510871744
0.03211060123192 -1.2499873091943
0.032127228080455 -1.2511845493587
0.032143854928989 -1.2513487060256
0.032160481777523 -1.2492780256487
0.032177108626058 -1.2458826325163
0.032193735474592 -1.242158905608
0.032210362323126 -1.2370955061144
0.032226989171661 -1.2323862050699
0.032243616020195 -1.2291932707105
0.032260242868729 -1.2274440521722
0.032276869717264 -1.2271121197155
0.032293496565798 -1.2253617819734
0.032310123414332 -1.222281230902
0.032326750262867 -1.2194256285681
0.032343377111401 -1.2156422752131
0.032360003959935 -1.2105112992886
0.03237663080847 -1.20539572133
0.032393257657004 -1.2011631914965
0.032409884505538 -1.196180460786
0.032426511354073 -1.1919292212334
0.032443138202607 -1.1919041358163
0.032459765051141 -1.1929540706541
0.032476391899676 -1.1926339392731
0.03249301874821 -1.1932879940465
0.032509645596744 -1.19284016851
0.032526272445279 -1.1916566556292
0.032542899293813 -1.1910356371642
0.032559526142347 -1.1894985839615
0.032576152990882 -1.1863834258362
0.032592779839416 -1.182321032812
0.03260940668795 -1.1799980842284
0.032626033536485 -1.1781320114409
0.032642660385019 -1.1765175161914
0.032659287233553 -1.1744019906133
0.032675914082088 -1.1731330079493
0.032692540930622 -1.1737354943466
0.032709167779156 -1.17328204997
0.032725794627691 -1.1733079979229
0.032742421476225 -1.1753859360858
0.032759048324759 -1.1786133718162
0.032775675173293 -1.1803656266267
0.032792302021828 -1.1804922174367
0.032808928870362 -1.1824719905902
0.032825555718896 -1.1857979896508
0.032842182567431 -1.1884377214681
0.032858809415965 -1.1919340920461
0.032875436264499 -1.1953143820642
0.032892063113034 -1.1986139979809
0.032908689961568 -1.2023489509401
0.032925316810102 -1.2049613821177
0.032941943658637 -1.2060420333178
0.032958570507171 -1.2060250885776
0.032975197355705 -1.2072960749791
0.03299182420424 -1.2100685021891
0.033008451052774 -1.2123808438254
0.033025077901308 -1.2135928416067
0.033041704749843 -1.2143784863312
0.033058331598377 -1.2177630212506
0.033074958446911 -1.2225863146938
0.033091585295446 -1.2229990241339
0.03310821214398 -1.220521008155
0.033124838992514 -1.2193483245754
0.033141465841049 -1.2191476634781
0.033158092689583 -1.2194125070944
0.033174719538117 -1.2206786562159
0.033191346386652 -1.2211595691839
0.033207973235186 -1.2201793816705
0.03322460008372 -1.2217997688836
0.033241226932255 -1.2242325931407
0.033257853780789 -1.2262905175746
0.033274480629323 -1.2315079212444
0.033291107477858 -1.2366110113684
0.033307734326392 -1.239791086553
0.033324361174926 -1.2420755922441
0.033340988023461 -1.2426376807082
0.033357614871995 -1.24356194032
0.033374241720529 -1.2461606634779
0.033390868569064 -1.2495042138978
0.033407495417598 -1.2521016389697
0.033424122266132 -1.2540731951185
0.033440749114667 -1.2564162229638
0.033457375963201 -1.2592238093872
0.033474002811735 -1.2621346337731
0.03349062966027 -1.2631155526011
0.033507256508804 -1.2605497910183
0.033523883357338 -1.2578659311024
0.033540510205873 -1.2573688516291
0.033557137054407 -1.2557604919662
0.033573763902941 -1.2559097905791
